TITLE	LT-1453-332
DATA TYPE	
ORIGIN	JASCO
OWNER	
DATE	22/11/10
TIME	16:47:13
SPECTROMETER/DATA SYSTEM	JASCO Corp., J-810, Rev. 1.00
RESOLUTION	
DELTAX	-1
XUNITS	NANOMETERS
YUNITS	CD[mdeg]
Y2UNITS	HT[V]
Y3UNITS	ABSORBANCE
FIRSTX	400.0000
LASTX	200.0000
NPOINTS	201
FIRSTY	0.09901
MAXY	4.54812
MINY	-25.49162
XYDATA
400.0000	0.0990082	282.578	0.000207117
399.0000	0.230621	281.606	0.000581573
398.0000	0.331277	280.522	0.000451794
397.0000	0.351309	279.474	0.000150764
396.0000	0.00580442	278.852	0.000417262
395.0000	-0.348337	278.724	0.000384764
394.0000	-0.0662231	278.885	0.000800284
393.0000	-0.0524506	278.984	0.001453
392.0000	-0.0297821	279.01	0.00136349
391.0000	0.234241	278.944	0.0011487
390.0000	0.365015	278.812	0.00143318
389.0000	-0.0124115	278.63	0.00162569
388.0000	-0.0481232	278.515	0.00186405
387.0000	-0.216769	278.433	0.00207685
386.0000	0.106018	278.275	0.00239666
385.0000	-0.0612793	277.969	0.00250948
384.0000	-0.116409	277.605	0.00310283
383.0000	-0.0558472	277.227	0.00294211
382.0000	-0.165308	276.781	0.00264683
381.0000	-0.124188	276.4	0.0035358
380.0000	-0.0727295	276.021	0.00381681
379.0000	0.0524536	275.728	0.00402145
378.0000	0.00327151	275.474	0.00449643
377.0000	-0.0223388	275.228	0.00497258
376.0000	-0.219946	275.022	0.00525719
375.0000	0.0953644	274.823	0.00522553
374.0000	0.523953	274.566	0.00486374
373.0000	0.35997	274.251	0.00521206
372.0000	0.0532928	273.918	0.00571117
371.0000	0.0747833	273.644	0.00670782
370.0000	-0.257867	273.406	0.00752718
369.0000	-0.0897278	273.172	0.00786913
368.0000	0.0361115	272.989	0.00839717
367.0000	0.00784913	272.801	0.00771442
366.0000	-0.395984	272.646	0.00775358
365.0000	-0.437851	272.584	0.00851076
364.0000	0.110678	272.512	0.00893151
363.0000	0.142072	272.362	0.009338
362.0000	-0.149567	272.232	0.00979557
361.0000	-0.0754395	272.118	0.00963964
360.0000	-0.0263214	272.023	0.0102496
359.0000	0.114587	271.979	0.0113483
358.0000	-0.20275	271.946	0.0124226
357.0000	-0.256003	271.862	0.0131228
356.0000	-0.237701	271.793	0.0130677
355.0000	-0.122336	271.805	0.013576
354.0000	-0.173248	271.76	0.0138993
353.0000	-0.603787	271.742	0.0144654
352.0000	-0.242682	271.748	0.0157459
351.0000	-0.300568	271.75	0.0162901
350.0000	-0.276682	271.715	0.017003
349.0000	0.0993439	271.644	0.0172776
348.0000	-0.0119171	271.597	0.0175974
347.0000	-0.121689	271.618	0.018511
346.0000	-0.295926	271.606	0.0192543
345.0000	-0.217337	271.605	0.0201334
344.0000	-0.138708	271.577	0.0206606
343.0000	-0.0253998	271.573	0.0210228
342.0000	0.186371	271.547	0.0213486
341.0000	0.0661163	271.536	0.0228242
340.0000	-0.211404	271.532	0.0238252
339.0000	-0.283105	271.518	0.0247652
338.0000	-0.179996	271.512	0.025898
337.0000	-0.249509	271.571	0.0269378
336.0000	-0.397464	271.574	0.0274552
335.0000	-0.231702	271.595	0.0278874
334.0000	-0.275336	271.688	0.0293381
333.0000	-0.552786	271.798	0.0310563
332.0000	-0.773074	271.898	0.0325418
331.0000	-0.495773	271.954	0.0336833
330.0000	-0.218024	272.059	0.0344927
329.0000	-0.68522	272.172	0.0354098
328.0000	-1.04572	272.27	0.0370362
327.0000	-0.84534	272.391	0.0388269
326.0000	-0.561325	272.488	0.0401857
325.0000	-0.884543	272.561	0.0413629
324.0000	-1.13245	272.673	0.0435493
323.0000	-1.26308	272.655	0.0466232
322.0000	-1.44144	272.635	0.048381
321.0000	-1.16171	273.069	0.0509506
320.0000	-0.948834	273.507	0.0542434
319.0000	-1.62171	273.833	0.0580357
318.0000	-1.71356	274.19	0.0626493
317.0000	-1.58987	274.594	0.0680035
316.0000	-1.59979	275.029	0.0734847
315.0000	-1.56627	275.536	0.0798806
314.0000	-2.16888	276.029	0.0874355
313.0000	-2.51856	276.58	0.0957903
312.0000	-2.30267	277.322	0.105884
311.0000	-2.90425	278.436	0.117363
310.0000	-3.2708	279.87	0.129863
309.0000	-3.54752	281.37	0.144882
308.0000	-4.26026	283.025	0.162355
307.0000	-5.24991	285.048	0.183362
306.0000	-5.32351	287.383	0.208061
305.0000	-5.96921	290.12	0.23726
304.0000	-6.18528	293.13	0.268482
303.0000	-7.07838	296.207	0.300275
302.0000	-8.02249	299.071	0.329228
301.0000	-8.06717	301.485	0.353666
300.0000	-8.17538	303.428	0.373391
299.0000	-8.08991	304.996	0.388696
298.0000	-7.91878	306.507	0.403156
297.0000	-8.27903	308.139	0.419251
296.0000	-8.96862	309.858	0.435578
295.0000	-8.50952	311.536	0.451746
294.0000	-8.24796	312.964	0.465492
293.0000	-8.15595	314.043	0.475995
292.0000	-7.22857	314.731	0.483227
291.0000	-7.32971	314.862	0.488709
290.0000	-7.35339	315.516	0.49364
289.0000	-6.65792	316.725	0.497843
288.0000	-5.77669	317.565	0.50346
287.0000	-5.16227	318.462	0.510791
286.0000	-3.70425	319.469	0.518545
285.0000	-2.47655	320.628	0.527425
284.0000	-1.30468	321.926	0.537986
283.0000	-0.37561	323.286	0.54919
282.0000	0.728836	324.558	0.559215
281.0000	2.1216	325.473	0.566036
280.0000	2.03171	325.99	0.56894
279.0000	2.09386	326.282	0.568503
278.0000	3.26792	326.346	0.56575
277.0000	3.45051	326.402	0.56319
276.0000	3.83157	326.534	0.560948
275.0000	4.08635	326.573	0.557778
274.0000	3.85545	326.474	0.554244
273.0000	3.50287	326.213	0.548742
272.0000	3.83733	325.789	0.541384
271.0000	4.00695	325.262	0.532423
270.0000	4.18298	324.703	0.522219
269.0000	3.96575	324.155	0.510637
268.0000	4.1642	323.567	0.498176
267.0000	4.54812	322.954	0.485734
266.0000	3.87882	322.36	0.473184
265.0000	3.14653	321.812	0.46128
264.0000	2.89318	321.223	0.44915
263.0000	2.79159	320.609	0.436661
262.0000	2.51014	320.031	0.424445
261.0000	2.71192	319.489	0.411761
260.0000	2.31226	319.053	0.399774
259.0000	1.42397	318.734	0.389183
258.0000	0.58063	318.45	0.379599
257.0000	0.44165	318.194	0.370285
256.0000	0.134314	318.076	0.36159
255.0000	-0.0926605	318.112	0.354302
254.0000	-0.0738556	318.322	0.348589
253.0000	-0.758371	318.678	0.344882
252.0000	-1.40162	319.251	0.342629
251.0000	-1.7305	320.063	0.342921
250.0000	-2.31797	321.051	0.345258
249.0000	-2.33418	322.173	0.348903
248.0000	-2.75937	323.36	0.353962
247.0000	-4.0463	324.736	0.359611
246.0000	-4.45983	326.414	0.367542
245.0000	-3.7499	328.214	0.377038
244.0000	-3.71972	329.997	0.386757
243.0000	-3.75877	331.899	0.396629
242.0000	-3.79626	333.949	0.407291
241.0000	-3.20245	336.133	0.418698
240.0000	-2.46377	338.313	0.429076
239.0000	-3.06611	340.54	0.438698
238.0000	-2.20597	342.775	0.448274
237.0000	-1.06577	345.128	0.457626
236.0000	-0.704907	347.611	0.46761
235.0000	0.245184	350.239	0.478243
234.0000	1.7538	353.023	0.489266
233.0000	3.41517	356.059	0.501363
232.0000	3.09319	359.31	0.515544
231.0000	2.93154	363.007	0.532769
230.0000	3.01895	367.086	0.553554
229.0000	3.16952	371.912	0.579619
228.0000	3.41027	377.646	0.612609
227.0000	1.93852	384.11	0.651906
226.0000	0.429083	391.521	0.698533
225.0000	-2.765	399.99	0.752905
224.0000	-5.54765	409.372	0.813139
223.0000	-9.35118	419.516	0.878091
222.0000	-14.2248	430.009	0.943164
221.0000	-20.2571	440.245	1.00297
220.0000	-23.3342	449.402	1.05125
219.0000	-25.4916	456.872	1.08795
218.0000	-25.1129	462.457	1.11192
217.0000	-21.7015	466.347	1.12516
216.0000	-19.1545	468.705	1.12897
215.0000	-17.8792	469.875	1.12521
214.0000	-17.3325	470.172	1.1169
213.0000	-14.9995	469.806	1.10405
212.0000	-13.2843	469.103	1.08864
211.0000	-10.5497	468.432	1.07407
210.0000	-10.4424	468.115	1.06248
209.0000	-11.1433	468.393	1.05546
208.0000	-9.2941	469.608	1.05473
207.0000	-10.1284	471.999	1.06161
206.0000	-11.9111	475.719	1.07611
205.0000	-14.7939	480.827	1.09881
204.0000	-13.1524	487.493	1.12966
203.0000	-10.9929	496.027	1.16905
202.0000	-7.69936	507.076	1.21782
201.0000	-5.43352	521.659	1.27973
200.0000	-0.911377	540.726	1.35734