TITLE	
DATA TYPE	
ORIGIN	JASCO
OWNER	
DATE	05/09/09
TIME	15:42:16
SPECTROMETER/DATA SYSTEM	JASCO Corp., J-810, Rev. 1.00
RESOLUTION	
DELTAX	-1
XUNITS	NANOMETERS
YUNITS	CD[mdeg]
Y2UNITS	HT[V]
Y3UNITS	ABSORBANCE
FIRSTX	400.0000
LASTX	200.0000
NPOINTS	201
FIRSTY	0.64491
MAXY	1.14746
MINY	-1.94762
XYDATA
400.0000	0.64491	311.326	1.37069
399.0000	0.671704	309.658	1.35336
398.0000	0.537964	307.935	1.33537
397.0000	0.475702	306.254	1.31776
396.0000	0.826477	304.844	1.30294
395.0000	0.738812	303.937	1.29338
394.0000	0.843396	303.46	1.28834
393.0000	0.699329	303.01	1.28358
392.0000	0.148724	302.641	1.27968
391.0000	0.427887	302.166	1.27465
390.0000	0.747787	301.496	1.26755
389.0000	0.670859	300.777	1.25992
388.0000	0.636722	300.306	1.25491
387.0000	1.14746	299.747	1.24896
386.0000	1.00091	299.088	1.24193
385.0000	0.5974	298.377	1.23435
384.0000	0.328589	297.465	1.22459
383.0000	0.251337	296.728	1.21669
382.0000	0.367065	295.818	1.20692
381.0000	0.830197	294.909	1.19716
380.0000	0.609418	294.017	1.18755
379.0000	0.621884	293.286	1.17965
378.0000	0.693246	292.518	1.17135
377.0000	0.365762	291.895	1.1646
376.0000	-0.0539764	291.335	1.15853
375.0000	0.493985	290.751	1.15218
374.0000	0.55983	290.124	1.14538
373.0000	0.421283	289.481	1.13837
372.0000	0.465024	288.831	1.13129
371.0000	0.58576	288.111	1.12342
370.0000	0.67359	287.36	1.11522
369.0000	0.299396	286.782	1.10888
368.0000	0.0399292	286.246	1.10301
367.0000	0.443109	285.789	1.098
366.0000	0.747504	285.336	1.09302
365.0000	0.233768	284.872	1.08792
364.0000	0.105591	284.427	1.08302
363.0000	0.483801	284.058	1.07896
362.0000	0.345621	283.674	1.07472
361.0000	0.533066	283.281	1.07038
360.0000	0.231253	282.883	1.06599
359.0000	0.485583	282.526	1.06204
358.0000	0.688187	282.19	1.05833
357.0000	0.65202	281.855	1.05462
356.0000	0.309137	281.466	1.05031
355.0000	0.279834	281.138	1.04667
354.0000	0.512903	280.958	1.04467
353.0000	0.352432	280.639	1.04113
352.0000	-0.00985718	280.426	1.03877
351.0000	0.209	280.152	1.03573
350.0000	0.0279999	279.914	1.03308
349.0000	0.0303253	279.637	1.03
348.0000	0.366727	279.441	1.02782
347.0000	0.388126	279.272	1.02593
346.0000	0.436893	278.984	1.02273
345.0000	0.291141	278.71	1.01968
344.0000	0.288556	278.487	1.01719
343.0000	0.50455	278.26	1.01465
342.0000	0.178387	278.038	1.01218
341.0000	0.48782	277.832	1.00948
340.0000	0.21221	277.618	1.00671
339.0000	0.225122	277.343	1.00313
338.0000	0.464682	277.076	0.999673
337.0000	0.489163	276.975	0.998371
336.0000	0.611566	276.805	0.996162
335.0000	0.646756	276.625	0.993823
334.0000	0.557034	276.477	0.991911
333.0000	0.215677	276.396	0.99085
332.0000	0.0196869	276.245	0.988896
331.0000	0.161197	276.085	0.986819
330.0000	0.139322	276.052	0.986396
329.0000	0.214456	275.952	0.985092
328.0000	0.142221	275.806	0.983209
327.0000	0.136862	275.624	0.980847
326.0000	0.455203	275.53	0.979619
325.0000	0.194662	275.396	0.977888
324.0000	0.170615	275.247	0.975954
323.0000	0.362082	275.048	0.973377
322.0000	0.091745	274.734	0.969297
321.0000	0.112552	274.74	0.969382
320.0000	0.137222	274.837	0.97063
319.0000	0.214523	274.8	0.970154
318.0000	0.360065	274.756	0.969588
317.0000	0.29158	274.669	0.968456
316.0000	0.151627	274.492	0.966161
315.0000	0.174615	274.326	0.964011
314.0000	0.434509	274.209	0.962494
313.0000	0.379117	274.071	0.960704
312.0000	-0.0427582	273.844	0.957758
311.0000	0.187549	273.889	0.958334
310.0000	0.163531	274.12	0.961342
309.0000	0.138055	274.22	0.96263
308.0000	0.0248077	274.204	0.962422
307.0000	-0.115051	274.249	0.963008
306.0000	0.169089	274.242	0.962924
305.0000	0.114395	274.221	0.962653
304.0000	0.112503	274.228	0.962742
303.0000	0.314191	274.291	0.963551
302.0000	0.202756	274.397	0.964928
301.0000	-0.228214	274.466	0.965825
300.0000	-0.38432	274.501	0.966282
299.0000	0.182559	274.564	0.967101
298.0000	0.108374	274.685	0.96867
297.0000	-0.118759	274.691	0.96874
296.0000	0.192682	274.708	0.968957
295.0000	-0.160007	274.835	0.970605
294.0000	-0.628976	274.935	0.971907
293.0000	-0.331543	274.901	0.971471
292.0000	-0.16572	274.893	0.971361
291.0000	-0.321298	274.589	0.967419
290.0000	-0.291382	274.609	0.967674
289.0000	-0.217319	275.242	0.97589
288.0000	-0.176498	275.429	0.978311
287.0000	-0.273138	275.487	0.979071
286.0000	-0.199106	275.75	0.982477
285.0000	-0.173532	275.962	0.985232
284.0000	-0.0929596	276.135	0.987474
283.0000	-0.115964	276.393	0.990822
282.0000	-0.172229	276.624	0.993817
281.0000	-0.00396423	276.733	0.995229
280.0000	-0.14838	276.895	0.997334
279.0000	-0.202026	277.146	1.00058
278.0000	-0.301361	277.443	1.00443
277.0000	-0.453262	277.755	1.00848
276.0000	-0.369174	277.951	1.01102
275.0000	-0.0284393	278.096	1.01282
274.0000	-0.0437561	278.192	1.01389
273.0000	-0.293176	278.386	1.01606
272.0000	-0.189658	278.619	1.01866
271.0000	-0.0312378	278.985	1.02274
270.0000	-0.151248	279.443	1.02783
269.0000	-0.171036	279.885	1.03276
268.0000	0.077475	280.326	1.03766
267.0000	-0.177637	280.786	1.04277
266.0000	-0.198575	281.314	1.04863
265.0000	0.101492	281.887	1.05497
264.0000	-0.0856293	282.541	1.06221
263.0000	0.123361	283.094	1.06832
262.0000	-0.0801849	283.717	1.0752
261.0000	-0.53721	284.505	1.08388
260.0000	-0.455414	285.265	1.09224
259.0000	-0.484293	285.954	1.09981
258.0000	-0.485678	286.643	1.10737
257.0000	-0.568753	287.338	1.11498
256.0000	-0.584235	287.975	1.12194
255.0000	-0.375671	288.688	1.12973
254.0000	-0.305511	289.447	1.138
253.0000	-0.567264	290.226	1.14648
252.0000	-0.181808	291.018	1.15509
251.0000	-0.0605194	291.752	1.16305
250.0000	0.0488251	292.552	1.17171
249.0000	0.236139	293.414	1.18104
248.0000	-0.25499	294.141	1.18887
247.0000	-0.564148	294.886	1.19691
246.0000	-0.356055	295.722	1.2059
245.0000	-0.249939	296.56	1.21489
244.0000	-0.088559	297.447	1.2244
243.0000	-0.221957	298.344	1.23399
242.0000	0.0563873	299.316	1.24436
241.0000	-0.330667	300.457	1.25651
240.0000	-0.135495	301.584	1.26848
239.0000	-0.246985	302.804	1.2814
238.0000	-0.44866	304.114	1.29524
237.0000	-0.750974	305.386	1.30864
236.0000	-0.838193	306.82	1.3237
235.0000	-0.85831	308.244	1.3386
234.0000	-0.907672	309.594	1.35268
233.0000	-0.43317	311.159	1.36896
232.0000	-0.548212	312.69	1.38483
231.0000	-0.843439	314.144	1.39985
230.0000	-0.992773	315.595	1.41478
229.0000	-1.13592	317.15	1.43073
228.0000	-1.39087	318.804	1.44763
227.0000	-1.4472	320.318	1.46305
226.0000	-1.11925	321.708	1.47716
225.0000	-1.02198	323.043	1.49066
224.0000	-1.92112	324.407	1.50441
223.0000	-1.59241	325.743	1.51785
222.0000	-1.21013	327.094	1.53138
221.0000	-1.1013	328.495	1.54537
220.0000	-1.90141	329.729	1.55766
219.0000	-1.94762	330.857	1.56886
218.0000	-1.49627	331.907	1.57926
217.0000	-1.39986	332.925	1.58932
216.0000	-1.38057	333.835	1.59829
215.0000	-0.732565	334.928	1.60904
214.0000	-1.32092	336.066	1.62019
213.0000	-1.48415	337.262	1.63188
212.0000	-1.21192	338.815	1.64702
211.0000	-1.07387	340.759	1.66589
210.0000	-0.580368	343.057	1.68807
209.0000	-0.767657	345.595	1.71243
208.0000	-1.22359	347.926	1.73467
207.0000	-1.36181	350.041	1.75474
206.0000	-0.838342	352.342	1.77644
205.0000	-0.821182	354.583	1.79747
204.0000	-0.786725	356.32	1.81369
203.0000	-0.559607	357.598	1.82557
202.0000	0.332105	359.107	1.83955
201.0000	0.851993	361.561	1.86218
200.0000	0.907071	363.939	1.88396