TITLE	
DATA TYPE	
ORIGIN	JASCO
OWNER	
DATE	23/10/10
TIME	16:53:12
SPECTROMETER/DATA SYSTEM	JASCO Corp., J-810, Rev. 1.00
RESOLUTION	
DELTAX	-1
XUNITS	NANOMETERS
YUNITS	CD[mdeg]
Y2UNITS	HT[V]
Y3UNITS	ABSORBANCE
FIRSTX	400.0000
LASTX	200.0000
NPOINTS	201
FIRSTY	0.88777
MAXY	1.37416
MINY	-2.01703
XYDATA
400.0000	0.887772	304.615	1.30052
399.0000	1.02173	303.36	1.28728
398.0000	1.07177	301.886	1.27169
397.0000	0.739401	300.43	1.25623
396.0000	0.714072	299.47	1.24601
395.0000	0.699002	298.971	1.24068
394.0000	0.672729	298.726	1.23807
393.0000	0.949808	298.56	1.2363
392.0000	1.04385	298.393	1.23451
391.0000	0.934827	298.121	1.23161
390.0000	0.621848	297.652	1.22659
389.0000	0.782315	297.195	1.2217
388.0000	1.12486	296.951	1.21909
387.0000	1.16476	296.667	1.21604
386.0000	0.994476	296.264	1.21171
385.0000	0.927731	295.711	1.20578
384.0000	0.645337	295.057	1.19875
383.0000	0.598447	294.492	1.19266
382.0000	0.516226	293.841	1.18564
381.0000	1.37416	293.166	1.17836
380.0000	1.07249	292.52	1.17136
379.0000	0.647717	291.979	1.16551
378.0000	0.684335	291.502	1.16034
377.0000	0.354279	291.031	1.15523
376.0000	0.50043	290.676	1.15137
375.0000	0.436026	290.351	1.14784
374.0000	0.383432	289.924	1.1432
373.0000	0.680051	289.37	1.13716
372.0000	0.615414	288.842	1.1314
371.0000	0.488669	288.453	1.12716
370.0000	0.352271	288.012	1.12235
369.0000	0.34577	287.581	1.11764
368.0000	0.408978	287.253	1.11404
367.0000	0.321039	286.965	1.11089
366.0000	0.464853	286.621	1.10712
365.0000	0.176913	286.336	1.104
364.0000	0.194806	286.151	1.10197
363.0000	0.374475	285.963	1.0999
362.0000	0.429758	285.71	1.09713
361.0000	0.642621	285.458	1.09435
360.0000	0.410834	285.167	1.09116
359.0000	0.357736	284.966	1.08895
358.0000	0.318134	284.783	1.08694
357.0000	0.126147	284.563	1.08451
356.0000	0.284961	284.355	1.08223
355.0000	0.645038	284.226	1.0808
354.0000	0.519778	284.077	1.07917
353.0000	0.384229	283.929	1.07753
352.0000	0.518094	283.795	1.07606
351.0000	0.842105	283.677	1.07475
350.0000	0.57099	283.527	1.0731
349.0000	0.371375	283.388	1.07156
348.0000	0.238824	283.211	1.06961
347.0000	0.408463	282.976	1.06702
346.0000	0.338205	282.87	1.06584
345.0000	0.502341	282.862	1.06576
344.0000	0.345166	282.699	1.06395
343.0000	0.0595032	282.517	1.06194
342.0000	0.462524	282.356	1.06016
341.0000	0.718054	282.219	1.05865
340.0000	0.612854	282.091	1.05723
339.0000	0.219553	282.006	1.05629
338.0000	0.191998	281.896	1.05507
337.0000	0.317313	281.755	1.05351
336.0000	0.274164	281.573	1.05149
335.0000	0.335834	281.515	1.05085
334.0000	0.686771	281.544	1.05117
333.0000	0.286151	281.53	1.05101
332.0000	0.102255	281.417	1.04977
331.0000	0.199695	281.421	1.04981
330.0000	0.0345367	281.345	1.04897
329.0000	0.136884	281.207	1.04744
328.0000	0.294675	281.229	1.04768
327.0000	0.441431	281.298	1.04845
326.0000	0.378525	281.247	1.04788
325.0000	0.384311	281.176	1.04709
324.0000	0.238004	280.968	1.04478
323.0000	0.0882446	280.72	1.04204
322.0000	0.234787	280.584	1.04052
321.0000	0.312463	280.746	1.04232
320.0000	0.301642	280.861	1.0436
319.0000	0.34223	280.931	1.04437
318.0000	0.284396	280.941	1.04449
317.0000	0.17887	280.901	1.04404
316.0000	0.354501	280.957	1.04467
315.0000	0.489606	280.997	1.0451
314.0000	0.314975	280.861	1.0436
313.0000	0.20152	280.686	1.04165
312.0000	0.237198	280.552	1.04017
311.0000	0.224954	280.716	1.04199
310.0000	0.205215	280.984	1.04496
309.0000	0.292679	281.157	1.04688
308.0000	0.023053	281.186	1.04721
307.0000	0.171188	281.256	1.04798
306.0000	0.420044	281.419	1.04979
305.0000	0.100092	281.531	1.05102
304.0000	-0.0667877	281.676	1.05263
303.0000	-0.10444	281.875	1.05484
302.0000	-0.296951	281.984	1.05604
301.0000	-0.0371399	282.075	1.05705
300.0000	0.0718689	282.18	1.05822
299.0000	-0.0234497	282.359	1.0602
298.0000	0.183212	282.564	1.06246
297.0000	0.178415	282.655	1.06347
296.0000	-0.0692261	282.81	1.06518
295.0000	-0.218756	283.02	1.0675
294.0000	-0.0526398	283.162	1.06907
293.0000	0.0528259	283.299	1.07059
292.0000	-0.0483856	283.339	1.07103
291.0000	-0.461179	283.053	1.06787
290.0000	-0.359387	283.335	1.07097
289.0000	-0.285535	284.098	1.0794
288.0000	-0.117929	284.415	1.08288
287.0000	0.0258789	284.735	1.08641
286.0000	-0.334689	285.116	1.0906
285.0000	-0.480142	285.498	1.0948
284.0000	-0.600049	285.868	1.09887
283.0000	-0.391339	286.199	1.1025
282.0000	-0.277945	286.528	1.1061
281.0000	-0.335757	286.841	1.10954
280.0000	-0.400629	287.185	1.1133
279.0000	-0.400513	287.6	1.11784
278.0000	0.140762	287.997	1.12218
277.0000	0.195993	288.476	1.12742
276.0000	-0.0725281	288.897	1.13201
275.0000	-0.132294	289.314	1.13655
274.0000	-0.331879	289.71	1.14087
273.0000	-0.236487	290.117	1.14529
272.0000	-0.0619446	290.533	1.14982
271.0000	-0.223132	291.077	1.15573
270.0000	-0.337122	291.756	1.16309
269.0000	-0.242783	292.469	1.17081
268.0000	0.0657379	293.193	1.17864
267.0000	0.141568	293.966	1.18699
266.0000	-0.0241821	294.646	1.19432
265.0000	-0.391144	295.401	1.20244
264.0000	-0.313852	296.305	1.21216
263.0000	-0.221204	297.378	1.22366
262.0000	-0.321069	298.336	1.23391
261.0000	-0.17673	299.159	1.24269
260.0000	-0.331833	299.999	1.25165
259.0000	0.0790405	300.77	1.25984
258.0000	0.27916	301.547	1.26809
257.0000	0.284576	302.322	1.2763
256.0000	0.0690765	303.124	1.28479
255.0000	-0.20434	303.929	1.2933
254.0000	-0.0782043	304.754	1.30199
253.0000	-0.486981	305.581	1.31069
252.0000	0.10816	306.402	1.31931
251.0000	0.225732	307.286	1.32858
250.0000	-0.0126984	308.139	1.3375
249.0000	-0.352808	308.984	1.34633
248.0000	-0.141544	309.613	1.35288
247.0000	-0.101837	310.236	1.35937
246.0000	-0.148608	311.087	1.36821
245.0000	-0.669858	311.892	1.37656
244.0000	-0.464694	312.536	1.38324
243.0000	-0.0960297	313.304	1.39118
242.0000	0.00270691	314.1	1.39939
241.0000	0.282318	314.928	1.40792
240.0000	-0.427322	315.84	1.4173
239.0000	-0.366357	316.795	1.42709
238.0000	-0.0756958	317.76	1.43697
237.0000	0.0344238	318.785	1.44745
236.0000	-0.265222	319.735	1.45712
235.0000	-0.511508	320.689	1.46682
234.0000	-0.793298	321.819	1.47828
233.0000	-1.17035	322.889	1.4891
232.0000	-0.921912	323.886	1.49917
231.0000	-0.732367	325	1.51039
230.0000	-0.897446	325.966	1.52008
229.0000	-1.32035	326.982	1.53026
228.0000	-1.78869	328.225	1.54268
227.0000	-1.26771	329.288	1.55328
226.0000	-1.23688	330.291	1.56325
225.0000	-1.65129	331.208	1.57234
224.0000	-1.49339	332.114	1.58131
223.0000	-1.30915	333.14	1.59144
222.0000	-0.996466	334.083	1.60073
221.0000	-1.3279	334.896	1.60872
220.0000	-1.57328	335.713	1.61673
219.0000	-1.28816	336.577	1.62519
218.0000	-1.40434	337.366	1.63291
217.0000	-1.41625	338.056	1.63963
216.0000	-1.2069	338.715	1.64605
215.0000	-1.90732	339.313	1.65187
214.0000	-1.48076	339.832	1.6569
213.0000	-1.15224	340.271	1.66116
212.0000	-1.55522	340.836	1.66663
211.0000	-1.30361	341.449	1.67256
210.0000	-1.38437	341.954	1.67744
209.0000	-1.51975	342.46	1.68233
208.0000	-1.97693	343.272	1.69014
207.0000	-2.01703	344.045	1.69757
206.0000	-1.93444	344.806	1.70487
205.0000	-1.84539	345.918	1.71552
204.0000	-1.07914	347.335	1.72904
203.0000	-0.321133	349.099	1.74581
202.0000	-0.100211	351.49	1.76842
201.0000	-0.00166626	354.998	1.80135
200.0000	-0.674466	359.719	1.84521