TITLE	A
DATA TYPE	
ORIGIN	JASCO
OWNER	
DATE	05/09/09
TIME	15:54:40
SPECTROMETER/DATA SYSTEM	JASCO Corp., J-810, Rev. 1.00
RESOLUTION	
DELTAX	-1
XUNITS	NANOMETERS
YUNITS	CD[mdeg]
Y2UNITS	HT[V]
Y3UNITS	ABSORBANCE
FIRSTX	400.0000
LASTX	200.0000
NPOINTS	201
FIRSTY	0.03000
MAXY	28.47094
MINY	-39.31514
XYDATA
400.0000	0.0300049	306.306	-0.052389
399.0000	0.00148314	304.854	-0.0503201
398.0000	-0.079602	303.249	-0.0492603
397.0000	0.111978	301.639	-0.0486952
396.0000	-0.192291	300.394	-0.0470965
395.0000	-0.252982	299.673	-0.0452095
394.0000	-0.0473297	299.242	-0.0447691
393.0000	0.147504	298.969	-0.0429197
392.0000	0.368805	298.726	-0.0416064
391.0000	0.12554	298.302	-0.0411035
390.0000	0.00252686	297.762	-0.0397812
389.0000	0.284064	297.187	-0.0383064
388.0000	0.099408	296.714	-0.0383615
387.0000	-0.472995	296.264	-0.0372404
386.0000	-0.366022	295.661	-0.0366925
385.0000	-0.336917	294.984	-0.0363797
384.0000	-0.165671	294.206	-0.035004
383.0000	0.323364	293.507	-0.0346577
382.0000	0.222372	292.722	-0.033371
381.0000	0.0865082	291.942	-0.0320417
380.0000	0.505688	291.172	-0.0307878
379.0000	-0.0683533	290.523	-0.0299426
378.0000	-0.174216	289.858	-0.0288709
377.0000	0.188754	289.378	-0.027354
376.0000	0.644885	288.867	-0.0268421
375.0000	0.246213	288.328	-0.0263892
374.0000	0.0297882	287.766	-0.0257224
373.0000	-0.00105284	287.105	-0.02595
372.0000	0.123221	286.47	-0.0258182
371.0000	-0.187448	285.806	-0.0252394
370.0000	-0.539575	285.328	-0.0222938
369.0000	-0.120697	284.89	-0.0207723
368.0000	0.193915	284.366	-0.0206614
367.0000	0.260135	283.916	-0.0206134
366.0000	-0.306317	283.482	-0.0204131
365.0000	-0.020932	283.144	-0.0190532
364.0000	0.118307	282.812	-0.0178216
363.0000	-0.240103	282.508	-0.0171138
362.0000	-0.0356476	282.13	-0.0170558
361.0000	-0.0770966	281.764	-0.0167755
360.0000	0.513455	281.434	-0.0160304
359.0000	0.132983	281.204	-0.014637
358.0000	-0.383279	280.956	-0.0136771
357.0000	-0.275555	280.582	-0.014112
356.0000	0.198206	280.328	-0.0126291
355.0000	0.316882	280.083	-0.0117057
354.0000	-0.124973	279.854	-0.0122627
353.0000	0.0107361	279.667	-0.0108041
352.0000	0.509668	279.47	-0.010629
351.0000	0.10184	279.215	-0.0104285
350.0000	0.244482	278.993	-0.0102549
349.0000	0.474915	278.822	-0.00907248
348.0000	0.00239867	278.69	-0.00836654
347.0000	0.0804138	278.43	-0.00937596
346.0000	0.545682	278.095	-0.00991346
345.0000	0.47435	277.968	-0.00843035
344.0000	0.50593	277.851	-0.00746304
343.0000	0.416046	277.663	-0.00735874
342.0000	0.566617	277.435	-0.00784655
341.0000	0.380478	277.24	-0.00768078
340.0000	0.760602	277.117	-0.00650083
339.0000	1.09128	276.993	-0.004536
338.0000	1.14652	276.801	-0.00356943
337.0000	1.29572	276.652	-0.00419242
336.0000	0.996039	276.592	-0.00276754
335.0000	1.18719	276.552	-0.000941249
334.0000	1.43213	276.586	0.00140555
333.0000	2.3826	276.697	0.0039142
332.0000	3.23124	276.859	0.00797089
331.0000	3.60869	276.982	0.0116369
330.0000	4.11078	277.264	0.0157146
329.0000	4.64807	277.659	0.0221418
328.0000	5.50869	278.171	0.0304479
327.0000	6.29496	278.767	0.0394681
326.0000	6.41713	279.493	0.0487805
325.0000	7.19212	280.406	0.0606585
324.0000	7.75275	281.387	0.0734778
323.0000	8.05718	282.139	0.084381
322.0000	8.48225	282.72	0.094886
321.0000	8.47889	283.516	0.103599
320.0000	8.56833	284.142	0.109251
319.0000	8.59994	284.292	0.111374
318.0000	8.9202	284.205	0.110986
317.0000	9.17289	284.189	0.11194
316.0000	9.39973	284.215	0.11452
315.0000	10.011	284.28	0.117393
314.0000	10.1959	284.348	0.119652
313.0000	10.7681	284.477	0.122863
312.0000	11.9402	284.85	0.129917
311.0000	11.7241	285.512	0.136615
310.0000	11.4332	286.335	0.142644
309.0000	11.6627	286.979	0.148413
308.0000	11.2744	287.388	0.153105
307.0000	11.1944	287.616	0.155006
306.0000	10.6747	287.632	0.15527
305.0000	10.2678	287.551	0.154653
304.0000	9.72061	287.39	0.152799
303.0000	9.06409	287.245	0.150409
302.0000	8.315	287.2	0.148538
301.0000	8.57755	287.359	0.149381
300.0000	8.49632	287.62	0.151784
299.0000	7.50976	287.897	0.153986
298.0000	6.57061	288.355	0.157421
297.0000	5.64066	288.886	0.163145
296.0000	4.63659	289.513	0.169761
295.0000	3.87733	290.145	0.174992
294.0000	3.04222	290.82	0.18103
293.0000	1.86562	291.71	0.191125
292.0000	0.682202	292.565	0.200489
291.0000	-0.293509	293.162	0.210892
290.0000	-1.14019	294.416	0.224167
289.0000	-2.18798	296.671	0.240196
288.0000	-2.65439	298.847	0.261048
287.0000	-2.7205	301.11	0.284383
286.0000	-3.37597	303.729	0.308708
285.0000	-4.04037	306.622	0.336385
284.0000	-5.01306	309.866	0.368044
283.0000	-5.86214	313.33	0.400624
282.0000	-6.63097	317.016	0.435537
281.0000	-7.59642	320.717	0.471875
280.0000	-8.08322	324.279	0.505793
279.0000	-8.8969	327.795	0.537813
278.0000	-9.63988	330.922	0.565071
277.0000	-10.3052	333.661	0.588095
276.0000	-10.8751	336.187	0.610356
275.0000	-12.1242	338.592	0.632027
274.0000	-12.7709	340.841	0.652788
273.0000	-12.8538	343.145	0.672862
272.0000	-13.6574	345.569	0.693522
271.0000	-14.6435	348.055	0.713158
270.0000	-15.3963	350.819	0.734259
269.0000	-16.503	353.879	0.758117
268.0000	-18.4242	356.833	0.780793
267.0000	-19.0569	359.567	0.801036
266.0000	-20.1971	361.879	0.816469
265.0000	-22.0063	363.848	0.82816
264.0000	-23.207	365.589	0.836792
263.0000	-23.8025	366.94	0.842945
262.0000	-24.1242	368.123	0.846772
261.0000	-24.5754	369.351	0.849174
260.0000	-25.119	370.523	0.851344
259.0000	-26.2662	371.738	0.854667
258.0000	-26.4396	372.836	0.856923
257.0000	-26.9686	373.777	0.857704
256.0000	-27.8364	374.533	0.857466
255.0000	-28.1043	375.018	0.853984
254.0000	-27.7945	375.335	0.848524
253.0000	-28.483	375.649	0.842823
252.0000	-29.3687	375.97	0.837054
251.0000	-28.9987	376.313	0.83213
250.0000	-30.4407	376.85	0.828211
249.0000	-31.7331	377.754	0.826855
248.0000	-31.8011	378.735	0.827645
247.0000	-33.0761	379.882	0.829672
246.0000	-34.775	381.723	0.83677
245.0000	-37.0129	384.098	0.848404
244.0000	-38.51	387.128	0.865022
243.0000	-37.8993	391.028	0.888736
242.0000	-38.5317	395.943	0.919831
241.0000	-39.3151	402.022	0.958173
240.0000	-39.0247	409.158	1.00436
239.0000	-38.2308	417.604	1.05872
238.0000	-38.4274	427.261	1.11974
237.0000	-34.4253	438.423	1.18995
236.0000	-32.5113	451.058	1.26223
235.0000	-28.9297	464.616	1.3397
234.0000	-25.5617	477.714	1.4135
233.0000	-23.2232	489.332	1.47407
232.0000	-19.4538	498.772	1.51987
231.0000	-15.0744	506.519	1.55496
230.0000	-12.1221	513.139	1.58246
229.0000	-8.01948	519.439	1.6066
228.0000	-2.2758	525.921	1.63061
227.0000	-2.47651	531.163	1.64805
226.0000	-1.98474	534.191	1.65282
225.0000	1.11324	534.909	1.64378
224.0000	7.07051	533.823	1.62328
223.0000	5.99325	532.14	1.59935
222.0000	6.34218	530.277	1.57418
221.0000	8.47406	528.381	1.54831
220.0000	10.2775	526.331	1.52316
219.0000	11.1515	523.874	1.4965
218.0000	10.9862	521.208	1.46926
217.0000	8.78648	518.796	1.44393
216.0000	6.09328	516.961	1.42331
215.0000	4.01374	516.282	1.40824
214.0000	4.02824	517.25	1.40324
213.0000	1.90032	520.364	1.4113
212.0000	3.18054	525.889	1.43102
211.0000	2.20002	533.915	1.46237
210.0000	4.34435	544.391	1.50499
209.0000	9.0216	556.769	1.55611
208.0000	14.564	569.944	1.6129
207.0000	22.1488	582.981	1.66972
206.0000	26.036	594.888	1.7171
205.0000	28.4709	604.606	1.75164
204.0000	26.8071	611.288	1.77055
203.0000	25.1578	615.023	1.77675
202.0000	25.3022	617.189	1.77325
201.0000	25.1511	618.818	1.75851
200.0000	20.8886	618.728	1.73629