TITLE	B
DATA TYPE	
ORIGIN	JASCO
OWNER	
DATE	05/09/09
TIME	16:03:35
SPECTROMETER/DATA SYSTEM	JASCO Corp., J-810, Rev. 1.00
RESOLUTION	
DELTAX	-1
XUNITS	NANOMETERS
YUNITS	CD[mdeg]
Y2UNITS	HT[V]
Y3UNITS	ABSORBANCE
FIRSTX	400.0000
LASTX	200.0000
NPOINTS	201
FIRSTY	0.16043
MAXY	18.30349
MINY	-25.88656
XYDATA
400.0000	0.160434	303.669	-0.0801437
399.0000	0.0244934	302.279	-0.0775094
398.0000	0.381369	300.653	-0.0767701
397.0000	0.255362	299.137	-0.0753058
396.0000	-0.497861	298.017	-0.0724385
395.0000	-0.0863892	297.333	-0.0702008
394.0000	-0.106671	297.042	-0.0682864
393.0000	-0.333658	296.727	-0.0668916
392.0000	0.417633	296.468	-0.0657784
391.0000	0.344653	296.084	-0.064857
390.0000	0.069754	295.594	-0.0630352
389.0000	-0.114349	295.132	-0.0603601
388.0000	-0.123996	294.636	-0.0606994
387.0000	-0.470364	294.229	-0.0591303
386.0000	-0.187247	293.755	-0.0572167
385.0000	0.0975403	293.125	-0.0564347
384.0000	0.0845764	292.42	-0.0543044
383.0000	0.204846	291.742	-0.0537484
382.0000	0.224359	290.906	-0.0530568
381.0000	-0.341678	290.207	-0.0508776
380.0000	-0.107861	289.515	-0.0488023
379.0000	0.213992	288.842	-0.0482475
378.0000	-0.152518	288.249	-0.0464121
377.0000	-0.0434448	287.791	-0.0446743
376.0000	0.337311	287.265	-0.0443472
375.0000	-0.189069	286.787	-0.0432462
374.0000	-0.416287	286.345	-0.0412763
373.0000	-0.249161	285.702	-0.0413385
372.0000	0.146225	285.135	-0.0404787
371.0000	-0.28353	284.604	-0.0384579
370.0000	-0.578906	284.064	-0.0361988
369.0000	-0.0700897	283.527	-0.0357829
368.0000	0.341458	283.106	-0.0345588
367.0000	-0.00876159	282.74	-0.0335874
366.0000	-0.633725	282.324	-0.0332115
365.0000	0.204715	282.083	-0.0307772
364.0000	0.658841	281.74	-0.029683
363.0000	0.146899	281.359	-0.0298387
362.0000	0.187189	281.131	-0.0281323
361.0000	0.00032959	280.928	-0.02604
360.0000	0.0629913	280.537	-0.0259828
359.0000	-0.187509	280.194	-0.0258425
358.0000	-0.349683	279.953	-0.0248166
357.0000	-0.188055	279.664	-0.0243212
356.0000	0.12168	279.499	-0.0218405
355.0000	0.098468	279.349	-0.0198764
354.0000	-0.154984	279.102	-0.0206308
353.0000	0.122125	278.828	-0.0201386
352.0000	0.490546	278.746	-0.0186957
351.0000	0.423355	278.545	-0.0178955
350.0000	0.612958	278.301	-0.0179634
349.0000	0.368359	278.036	-0.0178387
348.0000	0.0552521	277.902	-0.0174324
347.0000	0.397583	277.806	-0.0167834
346.0000	0.339346	277.587	-0.016422
345.0000	0.249524	277.336	-0.0166304
344.0000	0.245633	277.136	-0.0167358
343.0000	-0.0479309	277.07	-0.0150482
342.0000	0.766034	276.927	-0.0144317
341.0000	0.634665	276.694	-0.0147623
340.0000	0.886652	276.582	-0.0134339
339.0000	1.01957	276.431	-0.0118293
338.0000	0.868289	276.261	-0.0105658
337.0000	0.813296	276.194	-0.0101359
336.0000	1.01793	276.128	-0.00877875
335.0000	1.36728	276.083	-0.00702331
334.0000	1.51231	276.048	-0.00556235
333.0000	2.02026	276.14	-0.00331889
332.0000	2.78314	276.28	0.00045401
331.0000	3.37747	276.422	0.00436897
330.0000	3.7863	276.579	0.00683252
329.0000	4.22296	276.883	0.0120794
328.0000	4.98117	277.401	0.0206761
327.0000	5.50369	277.908	0.0296219
326.0000	5.62762	278.558	0.0383633
325.0000	6.55607	279.312	0.0484882
324.0000	6.75497	280.01	0.0581973
323.0000	6.57871	280.541	0.066665
322.0000	6.97507	281.054	0.0764455
321.0000	6.98737	281.726	0.0838063
320.0000	7.17927	282.239	0.0882332
319.0000	7.38936	282.427	0.0907956
318.0000	7.04175	282.421	0.0912948
317.0000	7.2157	282.397	0.0921541
316.0000	7.68808	282.303	0.093416
315.0000	8.33778	282.383	0.0964452
314.0000	8.54434	282.471	0.0989427
313.0000	8.80417	282.625	0.102429
312.0000	9.50006	282.925	0.108695
311.0000	9.36025	283.425	0.113641
310.0000	9.18077	284.109	0.118175
309.0000	9.15914	284.801	0.124503
308.0000	9.26708	285.246	0.129605
307.0000	8.54684	285.458	0.131357
306.0000	7.50343	285.597	0.132964
305.0000	7.26357	285.724	0.134633
304.0000	6.72304	285.792	0.135283
303.0000	5.67891	285.812	0.134703
302.0000	5.27235	285.98	0.135163
301.0000	5.34335	286.37	0.138542
300.0000	4.7869	286.779	0.142573
299.0000	3.47916	287.328	0.147763
298.0000	2.80543	288.117	0.154828
297.0000	2.00417	288.906	0.163361
296.0000	0.482199	289.816	0.173063
295.0000	-0.644495	290.734	0.181403
294.0000	-1.55655	291.624	0.18976
293.0000	-3.58414	292.639	0.201191
292.0000	-4.54293	293.76	0.213411
291.0000	-4.81018	294.636	0.226793
290.0000	-5.84595	295.951	0.24068
289.0000	-6.55478	298.204	0.256609
288.0000	-7.04328	300.268	0.276187
287.0000	-6.99472	302.434	0.298416
286.0000	-7.81853	304.917	0.321233
285.0000	-8.51308	307.585	0.346475
284.0000	-9.27662	310.382	0.373411
283.0000	-10.7568	313.461	0.401979
282.0000	-11.6974	316.79	0.433223
281.0000	-12.4767	320.207	0.466689
280.0000	-13.305	323.503	0.497969
279.0000	-13.5311	326.757	0.527433
278.0000	-14.1042	329.81	0.554035
277.0000	-14.9424	332.604	0.577667
276.0000	-15.3511	335.119	0.599889
275.0000	-15.8789	337.598	0.622342
274.0000	-16.7821	340.03	0.644927
273.0000	-17.1737	342.323	0.664937
272.0000	-18.0273	344.63	0.684527
271.0000	-19.7119	347.193	0.704952
270.0000	-20.2892	349.926	0.725815
269.0000	-21.7659	352.644	0.746525
268.0000	-22.2656	355.237	0.765917
267.0000	-22.42	357.842	0.785071
266.0000	-23.451	360.071	0.799833
265.0000	-23.9323	361.727	0.808728
264.0000	-23.5465	363.035	0.813479
263.0000	-24.5056	364.116	0.817258
262.0000	-24.1569	365.067	0.819047
261.0000	-24.1047	365.788	0.816935
260.0000	-24.3401	366.459	0.814668
259.0000	-24.5174	366.983	0.811842
258.0000	-24.3024	367.363	0.807732
257.0000	-23.8074	367.562	0.801919
256.0000	-23.4286	367.648	0.795741
255.0000	-23.277	367.526	0.786842
254.0000	-24.0533	367.162	0.775283
253.0000	-22.509	366.798	0.763503
252.0000	-22.0652	366.361	0.750926
251.0000	-22.6326	365.928	0.73903
250.0000	-23.4152	365.697	0.728269
249.0000	-24.2192	365.632	0.718351
248.0000	-24.01	365.679	0.71095
247.0000	-23.9187	365.999	0.705817
246.0000	-24.7457	366.739	0.703548
245.0000	-25.4249	367.711	0.703357
244.0000	-25.8866	369.264	0.707869
243.0000	-25.7204	371.616	0.719403
242.0000	-25.3632	374.591	0.735557
241.0000	-24.1756	378.567	0.75854
240.0000	-21.8079	383.507	0.789695
239.0000	-20.0328	389.378	0.827277
238.0000	-17.9955	396.077	0.870067
237.0000	-16.4573	403.676	0.919635
236.0000	-15.3855	412.151	0.973171
235.0000	-12.47	420.897	1.0273
234.0000	-8.70071	428.916	1.07491
233.0000	-6.48539	435.772	1.11017
232.0000	-3.68191	441.307	1.1338
231.0000	-0.961639	445.967	1.15104
230.0000	1.42706	450.181	1.16513
229.0000	4.34786	454.368	1.17788
228.0000	7.19323	458.572	1.18966
227.0000	9.58047	462.07	1.19802
226.0000	8.33694	464.369	1.19947
225.0000	9.01741	465.376	1.19277
224.0000	12.1643	465.534	1.18009
223.0000	11.929	465.116	1.16383
222.0000	10.6778	464.482	1.14601
221.0000	9.58505	463.924	1.12824
220.0000	9.0381	463.321	1.11188
219.0000	6.83683	462.464	1.09487
218.0000	4.44438	461.369	1.07704
217.0000	2.13849	460.12	1.05851
216.0000	0.785214	459.305	1.044
215.0000	-0.867548	459.067	1.03163
214.0000	0.602167	459.591	1.02404
213.0000	-1.20251	461.264	1.02371
212.0000	-0.533224	464.137	1.02803
211.0000	1.30349	468.346	1.03757
210.0000	3.37006	474.074	1.05382
209.0000	4.83933	481.012	1.07567
208.0000	11.1869	488.124	1.10041
207.0000	15.9324	494.712	1.12352
206.0000	16.1712	500.484	1.13937
205.0000	15.923	505.27	1.14929
204.0000	18.3035	508.599	1.15449
203.0000	17.1449	510.578	1.1553
202.0000	14.9611	511.989	1.15035
201.0000	14.9905	513.447	1.13704
200.0000	13.7334	514.263	1.12046